char,sent_n,token_i,word
0,1,0,A
2,1,1,midnight
11,1,2,deadline
23,1,4,release
31,1,5,Muslim
38,1,6,prisoners
52,1,8,passed
67,1,11,Fox
71,1,12,News
76,1,13,journalists
98,1,16,released
117,2,21,journalists
130,2,23,American
139,2,24,Steve
145,2,25,Centanni
161,2,30,reporter
174,2,32,Fox
178,2,33,News
187,2,35,New
191,2,36,Zealander
201,2,37,Olaf
206,2,38,Wiig
216,2,42,Centanni
227,2,44,cameraman
242,2,46,kidnapped
263,2,49,press
269,2,50,vehicle
280,2,52,August
291,3,55,Ten
295,3,56,days
300,3,57,later
315,3,61,journalists
327,3,62,appeared
341,3,65,video
347,3,66,allegedly
369,3,70,kidnappers
381,4,72,In
392,4,76,journalists
404,4,77,said
430,4,82,treated
445,5,86,According
462,5,89,Centanni
476,5,92,pair
486,5,94,ordered
497,5,96,convert
508,5,98,Islam
517,5,100,gunpoint
527,6,102,He
530,6,103,told
535,6,104,Fox
539,6,105,News
546,6,108,I
557,6,111,highest
565,6,112,respect
577,6,114,Islam
610,6,121,felt
649,6,130,guns
668,6,135,know
682,6,138,hell
691,6,140,going
704,7,145,In
709,7,147,press
715,7,148,conference
726,7,149,earlier
734,7,150,today
749,7,154,told
763,7,157,joy
776,7,160,released
786,8,162,They
796,8,164,urged
802,8,165,journalists
824,8,169,deterred
838,8,171,reporting
851,8,173,Gaza
858,9,176,I
860,9,177,hope
881,9,181,scares
890,9,183,single
897,9,184,journalist
908,9,185,away
918,9,187,coming
928,9,189,Gaza
936,9,191,cover
946,9,193,story
964,9,196,Palestinian
976,9,197,people
992,9,200,beautiful
1006,9,202,kind
1011,9,204,hearted
1025,9,208,Centanni
1034,9,209,said
1045,10,213,world
1051,10,214,needs
1060,10,216,know
1082,11,221,Do
1091,11,224,discouraged
1108,11,228,added
1117,12,231,Holy
1122,12,232,Jihad
1128,12,233,Brigades
1140,12,236,previously
1151,12,237,unknown
1159,12,238,group
1166,12,240,claims
1173,12,241,responsibility
1196,12,244,kidnappings
1209,13,246,They
1219,13,248,demanding
1233,13,250,release
1248,13,253,Muslim
1255,13,254,prisoners
1271,13,256,held
1283,13,259,United
1290,13,260,States
1298,14,262,In
1301,14,263,exchange
1315,14,265,promised
1335,14,268,release
1347,14,270,journalists
1368,14,274,United
1375,14,275,States
1382,14,276,immediately
1394,14,277,rejected
1407,14,279,offer
1415,15,282,I
1417,15,283,want
1425,15,285,clarify
1442,15,288,efforts
1458,15,291,negotiations
1479,15,295,want
1494,15,299,positive
1503,15,300,results
1526,15,304,release
1551,16,310,We
1559,16,312,continue
1572,16,314,efforts
1584,16,316,contacts
1596,16,318,secure
1607,16,320,release
1622,16,323,kidnapped
1632,16,324,journalists
1645,17,326,We
1652,17,328,confirm
1674,17,332,safe
1683,17,334,sound
1708,17,340,fuller
1715,17,341,details
1731,17,344,time
1753,17,348,want
1762,17,350,efforts
1776,17,353,crowned
1789,17,355,success
1799,17,358,said
1804,17,359,Abu
1808,17,360,Hilal
1815,17,362,spokesman
1833,17,365,Interior
1842,17,366,Ministry
1853,18,369,Yesterday
1864,18,371,Ghazi
1870,18,372,Hamad
1879,18,375,Hamas
1885,18,376,government
1896,18,377,spokesmen
1906,18,378,said
1913,18,381,I
1915,18,382,hope
1932,18,386,hear
1937,18,387,good
1942,18,388,news
1958,18,391,coming
1969,18,393,days
1978,19,397,Anita
1984,19,398,McNaught
1998,19,401,wife
2006,19,403,Wiig
2012,19,405,recently
2021,19,406,appeared
2033,19,408,TV
2036,19,409,calling
2052,19,412,release
2067,19,415,journalists
2089,20,420,journalists
2106,20,422,dropped
2121,20,425,Gaza
2126,20,426,City
2133,20,428,Beach
2139,20,429,Hotel
2154,20,432,hours
2168,20,435,video
2174,20,436,showed
2186,20,438,delivering
2200,20,440,anti
2205,20,442,Western
2213,20,443,speech
