char,sent_n,token_i,word
0,1,0,On
3,1,1,Wednesday
14,1,3,Muhsin
21,1,4,Yazıcıoğlu
32,1,5,leader
46,1,8,Great
52,1,9,Union
58,1,10,Party
65,1,12,Büyük
71,1,13,Birlik
78,1,14,Partisi
88,1,16,BBP
93,1,18,died
103,1,21,helicopter
114,1,22,crash
125,1,24,claimed
137,1,26,lives
149,2,30,helicopter
160,2,31,crashed
173,2,34,mountainous
185,2,35,region
192,2,36,near
201,2,38,city
209,2,40,Kahramanmaraş
228,2,43,rescue
235,2,44,efforts
248,2,46,hampered
260,2,48,stormy
267,2,49,weather
277,3,52,Recep
283,3,53,Tayyip
290,3,54,Erdoğan
299,3,56,Prime
305,3,57,Minister
321,3,60,Republic
333,3,62,Turkey
340,3,63,related
359,3,66,personnel
373,3,68,assisted
389,3,71,search
400,3,73,rescue
410,3,75,locate
421,3,77,downed
428,3,78,helicopter
440,4,80,Thick
446,4,81,fog
450,4,82,compounded
466,4,85,snow
471,4,86,blizzard
480,4,87,hampered
489,4,88,efforts
499,5,91,Ismail
506,5,92,Gunes
516,5,95,Ihlas
522,5,96,News
527,5,97,Agency
534,5,98,cameraman
545,5,100,called
555,5,102,emergency
565,5,103,line
577,5,106,cell
582,5,107,phone
598,5,110,crash
605,6,112,He
608,6,113,reported
636,6,118,board
642,6,119,appeared
651,6,120,dead
676,6,126,trapped
691,6,129,broken
698,6,130,foot
705,7,133,Rescue
712,7,134,workers
720,7,135,found
730,7,137,crash
736,7,138,site
747,7,140,days
761,7,143,went
772,8,146,All
778,8,148,people
788,8,150,board
798,8,152,perished
809,9,155,Yazicioglu
824,9,157,departed
840,9,160,pre
844,9,162,election
853,9,163,rally
859,9,164,held
867,9,166,Kahramanmaraş
882,10,168,Subsequent
893,10,169,campaigning
909,10,171,Sunday
918,10,173,election
931,10,175,suspended
944,10,177,light
958,10,180,incident
970,11,184,May
978,11,186,soul
983,11,187,rest
991,11,189,peace
998,12,191,I
1003,12,193,expressing
1017,12,195,condolences
1040,12,199,family
1047,12,200,members
1063,12,203,community
1075,12,206,said
1084,12,208,Minister
1096,12,210,Justice
1105,12,212,Mehmet
1112,12,213,Ali
1116,12,214,Şahin
