char,sent_n,token_i,word
0,1,0,Greek
6,1,1,Prime
12,1,2,Minister
21,1,3,Costas
28,1,4,Karamanlis
56,1,9,Cabinet
78,1,13,Greece
87,1,15,second
94,1,17,largest
102,1,18,city
107,1,19,Thessaloniki
124,1,22,order
150,1,28,inauguration
171,1,32,organized
184,1,34,Helexpo
198,1,37,International
212,1,38,Fair
234,1,43,place
240,1,44,later
246,1,45,today
257,2,48,Greek
263,2,49,Premier
276,2,51,address
286,2,53,speech
301,2,57,traditionally
315,2,58,happens
329,2,60,year
343,2,64,Vellidion
353,2,65,Conference
364,2,66,Centre
383,2,70,going
392,2,72,speak
408,2,75,upcoming
417,2,76,governmental
430,2,77,policies
442,2,79,Economy
451,3,81,Earlier
459,3,82,today
466,3,84,Karamanlis
477,3,85,visited
489,3,87,sites
502,3,90,upcoming
511,3,91,public
518,3,92,works
531,3,95,city
541,3,98,Thessaloniki
554,3,99,Metro
560,3,100,construction
573,3,101,site
586,3,104,expansion
599,3,106,Makedonia
609,3,107,International
623,3,108,Airport
632,4,110,At
652,4,117,Greek
658,4,118,Premier
671,4,120,inaugurate
686,4,122,renovated
696,4,123,Archaeological
711,4,124,Museum
721,4,126,Thessaloniki
737,5,129,According
750,5,131,government
761,5,132,officials
772,5,134,Karamanlis
786,5,136,expected
798,5,138,emphasize
808,5,139,New
812,5,140,Democracy
824,5,142,achievements
850,5,150,half
855,5,151,years
864,5,153,government
881,5,155,avoiding
890,5,156,promises
902,5,158,handouts
934,5,165,announce
948,5,167,changes
966,5,169,economical
977,5,170,issues
985,5,172,like
994,5,174,tax
998,5,175,system
1008,6,178,Prime
1014,6,179,Minister
1023,6,180,Karamanlis
1039,6,182,address
1051,6,184,official
1060,6,185,speech
1071,6,188,pm
1077,6,190,Vellidion
1087,6,191,Centre
1108,6,194,demonstrations
1133,6,197,scheduled
1150,6,200,centre
1160,6,202,Thessaloniki
1188,6,206,area
1200,6,209,International
1214,6,210,Fair
1220,7,212,Among
1232,7,214,demonstrations
1248,7,216,condemning
1263,7,218,governmental
1276,7,219,policies
1294,7,223,supporters
1308,7,225,PAOK
1313,7,226,FC
1320,7,228,demand
1327,7,229,solution
1349,7,233,team
1356,7,235,administration
1382,7,239,Greece
1391,7,241,largest
1399,7,242,labour
1406,7,243,unions
1414,7,245,GSEE
1423,7,247,ADEDY
1446,7,252,organized
1458,7,254,protest
1473,7,257,city
1478,7,258,center
1489,7,261,pm
1496,7,263,demonstrators
1521,7,267,march
1534,7,270,exhibition
1545,7,271,center
1562,7,274,Thessaloniki
1575,7,275,International
1589,7,276,Fair
1603,7,279,held
